134.2595, 284.2211
136.1880, 294.5485
138.1165, 304.3281
140.0449, 312.2197
141.9734, 316.9238
143.9019, 318.6268
145.8303, 321.3646
147.7588, 325.1917
149.6873, 329.9661
151.6157, 336.0816
153.5442, 346.0626
155.4727, 352.8954
157.4011, 353.7893
159.3296, 343.9189
161.2581, 338.8442
163.1865, 342.3470
165.1150, 350.3336
167.0435, 355.5829
168.9719, 355.7729
170.9004, 354.4906
172.8289, 352.9464
174.7573, 350.1574
176.6858, 348.7292
178.6143, 349.8660
180.5427, 352.8815
182.4712, 355.5243
184.3997, 357.5385
186.3281, 359.1823
188.2566, 360.6633
190.1851, 362.1876
192.1135, 363.4445
194.0420, 362.6620
195.9705, 357.9520
197.8989, 361.5861
199.8274, 374.8904
201.7559, 395.7221
203.6843, 419.4876
205.6128, 442.1844
207.5413, 473.9576
209.4697, 512.5724
211.3982, 542.1683
213.3267, 618.1472
215.2551, 757.3917
217.1836, 943.6027
219.1121, 1145.961
221.0405, 1449.524
222.9690, 1693.099
224.8975, 1797.014
226.8259, 1716.686
228.7544, 1591.926
230.6829, 1378.369
232.6113, 1117.996
234.5398, 946.0895
236.4683, 911.4210
238.3967, 939.2815
240.3252, 1012.005
242.2537, 1160.946
244.1821, 1261.743
246.1106, 1274.766
248.0391, 1205.918
249.9675, 1105.692
251.8960, 935.1245
253.8245, 759.4193
255.7529, 632.5630
257.6814, 561.1241
259.6099, 512.4413
261.5384, 477.6786
263.4668, 457.7728
265.3953, 444.6790
267.3238, 439.3778
269.2522, 440.0200
271.1807, 443.7198
273.1092, 448.7446
275.0376, 460.5129
276.9661, 479.5461
278.8946, 506.6568
280.8230, 540.9948
282.7515, 582.6096
284.6800, 631.8876
286.6084, 689.2081
288.5369, 767.0193
290.4654, 836.1709
292.3938, 896.0743
294.3223, 946.5275
296.2508, 964.0927
298.1792, 931.0284
300.1077, 868.6339
302.0362, 799.8462
303.9646, 707.6108
305.8931, 626.2758
307.8216, 565.2859
309.7500, 524.9639
311.6785, 491.5851
313.6070, 465.5493
315.5354, 445.6145
317.4639, 431.0840
319.3924, 426.6938
321.3208, 423.1879
323.2493, 418.7612
325.1778, 413.5883
327.1062, 409.6328
329.0347, 408.4996
330.9632, 408.3580
332.8916, 407.6383
334.8201, 404.7346
336.7486, 403.1489
338.6770, 404.7211
340.6055, 408.8297
342.5340, 411.5941
344.4624, 409.9320
346.3909, 407.7903
348.3194, 408.7433
350.2478, 415.7192
352.1763, 421.4703
354.1048, 422.7452
356.0332, 420.7845
357.9617, 421.5663
359.8902, 428.4085
361.8186, 436.7018
363.7471, 443.0289
365.6756, 445.5777
367.6040, 450.2357
369.5325, 459.7608
371.4610, 472.8434
373.3894, 485.4504
375.3179, 494.8665
377.2464, 505.4626
379.1748, 519.4548
381.1033, 536.1753
383.0318, 557.3311
384.9602, 579.7681
386.8887, 606.1436
388.8172, 647.9216
390.7456, 700.8710
392.6741, 772.3571
394.6026, 864.9675
396.5310, 975.6573
398.4595, 1118.214
400.3880, 1321.152
402.3164, 1552.884
404.2449, 1771.927
406.1734, 2036.478
408.1018, 2230.663
410.0303, 2317.928
411.9588, 2302.602
413.8872, 2209.374
415.8157, 1974.907
417.7442, 1691.267
419.6726, 1434.833
421.6011, 1192.563
423.5296, 992.1352
425.4580, 850.1467
427.3865, 758.2514
429.3150, 685.2894
431.2434, 638.3912
433.1719, 603.5865
435.1004, 574.1191
437.0288, 552.4155
438.9573, 533.3435
440.8858, 517.8961
442.8142, 505.2308
444.7427, 493.3615
446.6712, 480.8551
448.5996, 471.1896
450.5281, 466.3021
452.4566, 468.2511
454.3850, 468.6860
456.3135, 466.0491
458.2420, 462.7471
460.1705, 460.9813
462.0989, 461.2998
464.0274, 462.2427
465.9559, 462.3210
467.8843, 461.8441
469.8128, 465.1193
471.7413, 473.7945
473.6697, 484.6477
475.5982, 496.0351
477.5267, 507.9413
479.4551, 520.2764
481.3836, 530.1124
483.3121, 540.6176
485.2405, 558.6097
487.1690, 581.1310
489.0975, 613.5076
491.0259, 663.5256
492.9544, 729.8868
494.8829, 788.2134
496.8113, 841.3517
498.7398, 883.2124
500.6683, 907.1115
502.5967, 912.3687
504.5252, 904.1559
506.4537, 876.1983
508.3821, 834.8259
510.3106, 792.4771
512.2391, 743.8989
514.1675, 699.6526
516.0960, 664.0910
518.0245, 638.4661
519.9529, 613.9604
521.8814, 587.5525
523.8099, 564.5613
525.7383, 548.9518
527.6668, 544.3975
529.5953, 541.5225
531.5237, 539.3435
533.4522, 537.7405
535.3807, 536.2172
537.3091, 533.8280
539.2376, 532.3372
541.1661, 532.0400
543.0945, 532.6689
545.0230, 535.5065
546.9515, 541.4273
548.8799, 548.8389
550.8084, 557.3475
552.7369, 568.7374
554.6653, 576.3488
556.5938, 574.9111
558.5223, 568.5116
560.4507, 566.4054
562.3792, 570.0948
564.3077, 576.8953
566.2361, 587.1612
568.1646, 600.9942
570.0931, 614.7108
572.0215, 630.2331
573.9500, 643.6685
575.8785, 652.1926
577.8069, 652.8456
579.7354, 654.9933
581.6639, 655.8659
583.5923, 659.6556
585.5208, 674.6074
587.4493, 705.3818
589.3777, 737.5457
591.3062, 761.5731
593.2347, 779.0035
595.1631, 811.9982
597.0916, 870.2212
599.0201, 935.7029
600.9485, 1001.793
602.8770, 1068.612
604.8055, 1134.710
606.7339, 1215.285
608.6624, 1286.347
610.5909, 1327.157
612.5193, 1333.635
614.4478, 1312.489
616.3763, 1251.407
618.3047, 1162.952
620.2332, 1083.795
622.1617, 1012.459
624.0901, 951.6913
626.0186, 901.9269
627.9471, 862.5274
629.8755, 835.8013
631.8040, 828.6780
633.7325, 828.5707
635.6609, 828.8450
637.5894, 828.6185
639.5179, 834.5119
641.4464, 848.8317
643.3748, 869.2191
645.3033, 893.7061
647.2318, 925.9565
649.1602, 954.4174
651.0887, 976.4952
653.0172, 993.1542
654.9456, 1008.230
656.8741, 1027.291
658.8026, 1037.739
660.7310, 1032.913
662.6595, 1015.588
664.5880, 996.1268
666.5164, 972.9857
668.4449, 949.9855
670.3734, 928.5778
672.3018, 908.7371
674.2303, 889.4871
676.1588, 871.8177
678.0872, 853.5490
680.0157, 831.5829
681.9442, 802.6570
683.8726, 781.5159
685.8011, 776.8174
687.7296, 778.8879
689.6580, 772.1207
691.5865, 749.0063
693.5150, 730.3773
695.4434, 724.8806
697.3719, 726.5774
699.3004, 723.0181
701.2288, 707.9203
703.1573, 695.1763
705.0858, 690.6569
707.0142, 694.2802
708.9427, 694.6451
710.8712, 690.2817
712.7996, 684.5768
714.7281, 678.8952
716.6566, 673.2726
718.5850, 667.5953
720.5135, 660.3047
722.4420, 654.0134
724.3704, 650.2615
726.2989, 649.7958
728.2274, 650.4363
730.1558, 654.0051
732.0843, 657.4873
734.0128, 656.6964
735.9412, 649.6074
737.8697, 646.6257
739.7982, 654.6991
741.7266, 667.3045
743.6551, 674.8627
745.5836, 670.5019
747.5120, 669.2961
749.4405, 675.9454
751.3690, 686.8474
753.2974, 692.6869
755.2259, 689.9861
757.1544, 688.5658
759.0828, 694.4766
761.0113, 706.0229
762.9398, 710.4537
764.8682, 699.3737
766.7967, 689.5200
768.7252, 685.9309
770.6536, 688.7267
772.5821, 693.9525
774.5106, 703.4207
776.4390, 713.3078
778.3675, 721.6981
780.2960, 728.5508
782.2244, 735.2850
784.1529, 740.7193
786.0814, 747.0732
788.0098, 755.3563
789.9383, 765.6232
791.8668, 778.4748
793.7952, 793.7324
795.7237, 812.1902
797.6522, 835.2783
799.5806, 864.3463
801.5091, 890.6119
803.4376, 910.1021
805.3660, 927.8350
807.2945, 948.3793
809.2230, 975.1801
811.1514, 997.0067
813.0799, 1013.166
815.0084, 1023.463
816.9368, 1027.192
818.8653, 1022.575
820.7938, 1019.303
822.7222, 1025.301
824.6507, 1031.895
826.5792, 1028.696
828.5077, 1001.998
830.4362, 982.6416
832.3646, 976.4451
834.2931, 976.4137
836.2216, 971.7672
838.1500, 961.1528
840.0785, 949.9976
842.0070, 938.9662
843.9354, 928.5672
845.8639, 919.7315
847.7924, 912.0817
849.7208, 907.0296
851.6493, 907.5873
853.5778, 910.4933
855.5062, 908.4785
857.4347, 899.3701
859.3632, 890.5758
861.2916, 882.4835
863.2201, 876.3319
865.1486, 875.1168
867.0770, 883.0283
869.0055, 888.3922
870.9340, 886.9078
872.8624, 881.4887
874.7909, 879.1243
876.7194, 879.8582
878.6478, 883.4758
880.5763, 893.8263
882.5048, 906.2836
884.4332, 912.4844
886.3617, 909.4367
888.2902, 906.2924
890.2186, 904.2596
892.1471, 903.9868
894.0756, 907.1414
896.0040, 920.3709
897.9325, 928.8589
899.8610, 927.3495
901.7894, 920.6450
903.7179, 918.6266
905.6464, 923.4631
907.5748, 926.8624
909.5033, 921.8862
911.4318, 914.9209
913.3602, 916.9898
915.2887, 936.3654
917.2172, 950.2949
919.1456, 951.0702
921.0741, 945.9227
923.0026, 947.7165
924.9310, 961.0631
926.8595, 970.3163
928.7880, 967.1419
930.7164, 961.0272
932.6449, 964.0167
934.5734, 980.1627
936.5018, 991.0226
938.4303, 986.1668
940.3588, 977.4305
942.2872, 976.9984
944.2157, 990.1864
946.1442, 1003.849
948.0726, 1024.263
950.0011, 1041.624
951.9296, 1043.154
953.8580, 1027.517
955.7865, 1016.623
957.7150, 1018.766
959.6434, 1023.815
961.5719, 1024.281
963.5004, 1018.931
965.4288, 1014.704
967.3573, 1011.523
969.2858, 1010.067
971.2142, 1011.526
973.1427, 1016.630
975.0712, 1019.888
976.9996, 1018.791
978.9281, 1018.104
980.8566, 1020.167
982.7850, 1024.642
984.7135, 1030.657
986.6420, 1040.942
988.5704, 1049.154
990.4989, 1050.874
992.4274, 1047.215
994.3558, 1049.330
996.2843, 1060.824
998.2128, 1073.907
1000.141, 1086.764
1002.070, 1099.748
1003.998, 1113.696
1005.927, 1127.876
1007.855, 1143.725
1009.784, 1164.162
1011.712, 1185.404
1013.641, 1200.419
1015.569, 1203.090
1017.497, 1213.968
1019.426, 1239.057
1021.354, 1272.176
1023.283, 1307.255
1025.211, 1348.026
1027.140, 1383.392
1029.068, 1409.422
1030.997, 1432.644
1032.925, 1458.316
1034.854, 1486.215
1036.782, 1512.169
1038.711, 1534.976
1040.639, 1555.856
1042.568, 1577.017
1044.496, 1598.687
1046.424, 1613.396
1048.353, 1619.135
1050.281, 1620.603
1052.210, 1614.844
1054.138, 1605.054
1056.067, 1606.220
1057.995, 1627.363
1059.924, 1643.449
1061.852, 1640.324
1063.781, 1630.067
1065.709, 1632.808
1067.638, 1654.311
1069.566, 1667.811
1071.495, 1658.157
1073.423, 1642.401
1075.351, 1635.267
1077.280, 1639.980
1079.208, 1645.356
1081.137, 1653.121
1083.065, 1659.891
1084.994, 1662.693
1086.922, 1661.457
1088.851, 1662.980
1090.779, 1669.280
1092.708, 1676.143
1094.636, 1683.307
1096.565, 1689.980
1098.493, 1692.962
1100.422, 1689.441
1102.350, 1688.271
1104.278, 1694.168
1106.207, 1702.574
1108.135, 1707.132
1110.064, 1708.492
1111.992, 1703.343
1113.921, 1683.632
1115.849, 1663.030
1117.778, 1656.459
1119.706, 1665.312
1121.635, 1660.426
1123.563, 1625.105
1125.492, 1593.300
1127.420, 1588.991
1129.349, 1602.425
1131.277, 1602.457
1133.205, 1580.234
1135.134, 1558.162
1137.062, 1540.659
1138.991, 1527.881
1140.919, 1520.300
1142.848, 1518.813
1144.776, 1521.461
1146.705, 1530.962
1148.633, 1542.345
1150.562, 1551.973
1152.490, 1559.719
1154.419, 1566.872
1156.347, 1571.146
1158.276, 1577.568
1160.204, 1589.632
1162.132, 1605.567
1164.061, 1621.356
1165.989, 1636.352
1167.918, 1652.351
1169.846, 1666.948
1171.775, 1684.397
1173.703, 1709.814
1175.632, 1745.203
1177.560, 1783.912
1179.489, 1835.297
1181.417, 1880.395
1183.346, 1904.890
1185.274, 1909.599
1187.203, 1918.284
1189.131, 1931.734
1191.059, 1948.033
1192.988, 1966.951
1194.916, 1989.025
1196.845, 2016.531
1198.773, 2052.311
1200.702, 2081.064
1202.630, 2090.815
1204.559, 2099.162
1206.487, 2119.159
1208.416, 2151.541
1210.344, 2177.134
1212.273, 2186.853
1214.201, 2198.603
1216.130, 2216.270
1218.058, 2239.764
1219.986, 2269.098
1221.915, 2306.713
1223.843, 2346.753
1225.772, 2392.651
1227.700, 2438.602
1229.629, 2476.801
1231.557, 2508.390
1233.486, 2547.908
1235.414, 2596.852
1237.343, 2653.343
1239.271, 2716.914
1241.200, 2787.235
1243.128, 2865.598
1245.057, 2954.559
1246.985, 3042.657
1248.913, 3121.309
1250.842, 3202.860
1252.770, 3297.537
1254.699, 3406.851
1256.627, 3512.868
1258.556, 3614.987
1260.484, 3715.513
1262.413, 3812.102
1264.341, 3909.725
1266.270, 4017.813
1268.198, 4137.705
1270.127, 4263.354
1272.055, 4393.666
1273.984, 4528.283
1275.912, 4663.454
1277.840, 4800.883
1279.769, 4952.049
1281.697, 5125.396
1283.626, 5296.836
1285.554, 5446.447
1287.483, 5596.463
1289.411, 5773.903
1291.340, 5980.963
1293.268, 6202.559
1295.197, 6428.071
1297.125, 6676.619
1299.054, 6967.673
1300.982, 7291.226
1302.911, 7606.688
1304.839, 7926.745
1306.767, 8224.093
1308.696, 8499.169
1310.624, 8750.520
1312.553, 8983.604
1314.481, 9197.378
1316.410, 9349.627
1318.338, 9436.978
1320.267, 9461.114
1322.195, 9422.646
1324.124, 9315.587
1326.052, 9129.974
1327.981, 8860.444
1329.909, 8571.423
1331.838, 8271.066
1333.766, 7959.112
1335.694, 7631.911
1337.623, 7293.174
1339.551, 6951.746
1341.480, 6592.504
1343.408, 6263.266
1345.337, 5983.831
1347.265, 5723.661
1349.194, 5460.252
1351.122, 5192.354
1353.051, 4945.523
1354.979, 4735.243
1356.908, 4527.781
1358.836, 4308.722
1360.765, 4095.749
1362.693, 3911.650
1364.621, 3761.218
1366.550, 3618.908
1368.478, 3480.956
1370.407, 3354.029
1372.335, 3243.385
1374.264, 3144.329
1376.192, 3049.033
1378.121, 2956.832
1380.049, 2866.571
1381.978, 2775.741
1383.906, 2688.324
1385.835, 2605.465
1387.763, 2528.012
1389.692, 2459.362
1391.620, 2402.007
1393.548, 2347.573
1395.477, 2296.365
1397.405, 2246.635
1399.334, 2195.479
1401.262, 2143.732
1403.191, 2101.888
1405.119, 2078.206
1407.048, 2049.677
1408.976, 2005.593
1410.905, 1960.363
1412.833, 1926.737
1414.762, 1905.232
1416.690, 1884.306
1418.619, 1863.845
1420.547, 1844.270
1422.475, 1824.750
1424.404, 1806.857
1426.332, 1793.348
1428.261, 1784.857
1430.189, 1771.853
1432.118, 1747.239
1434.046, 1727.078
1435.975, 1719.768
1437.903, 1717.084
1439.832, 1708.883
1441.760, 1695.498
1443.689, 1681.224
1445.617, 1666.265
1447.546, 1651.993
1449.474, 1638.095
1451.402, 1626.177
1453.331, 1618.742
1455.259, 1615.839
1457.188, 1611.633
1459.116, 1603.409
1461.045, 1596.325
1462.973, 1594.509
1464.902, 1593.638
1466.830, 1586.576
1468.759, 1572.246
1470.687, 1562.279
1472.616, 1561.031
1474.544, 1560.286
1476.473, 1558.302
1478.401, 1555.061
1480.329, 1550.018
1482.258, 1542.536
1484.186, 1536.870
1486.115, 1536.080
1488.043, 1533.458
1489.972, 1524.890
1491.900, 1514.247
1493.829, 1506.698
1495.757, 1502.110
1497.686, 1500.667
1499.614, 1507.586
1501.543, 1510.913
1503.471, 1503.714
1505.400, 1493.691
1507.328, 1492.016
1509.256, 1500.869
1511.185, 1502.766
1513.113, 1489.396
1515.042, 1479.857
1516.970, 1482.786
1518.899, 1488.424
1520.827, 1483.910
1522.756, 1469.146
1524.684, 1463.542
1526.613, 1474.033
1528.541, 1481.774
1530.470, 1480.779
1532.398, 1476.511
1534.327, 1474.362
1536.255, 1473.630
1538.183, 1468.411
1540.112, 1454.949
1542.040, 1447.098
1543.969, 1451.579
1545.897, 1459.806
1547.826, 1466.121
1549.754, 1471.426
1551.683, 1480.317
1553.611, 1495.993
1555.540, 1500.229
1557.468, 1479.727
1559.397, 1458.141
1561.325, 1451.125
1563.254, 1451.854
1565.182, 1448.380
1567.111, 1440.178
1569.039, 1429.698
1570.968, 1413.550
1572.896, 1401.349
1574.824, 1398.791
1576.753, 1402.235
1578.681, 1409.098
1580.610, 1419.446
1582.538, 1425.162
1584.467, 1424.299
1586.395, 1421.007
1588.324, 1414.398
1590.252, 1407.409
1592.181, 1403.048
1594.109, 1400.716
1596.038, 1396.019
1597.966, 1388.154
1599.895, 1379.966
1601.823, 1369.842
1603.751, 1362.379
1605.680, 1362.378
1607.608, 1366.807
1609.537, 1366.699
1611.465, 1361.077
1613.394, 1355.053
1615.322, 1345.231
1617.251, 1340.168
1619.179, 1346.540
1621.108, 1356.384
1623.036, 1360.326
1624.965, 1358.171
1626.893, 1352.050
1628.822, 1339.332
1630.750, 1328.527
1632.678, 1322.885
1634.607, 1318.843
1636.535, 1312.766
1638.464, 1306.228
1640.392, 1306.532
1642.321, 1317.482
1644.249, 1323.038
1646.178, 1314.254
1648.106, 1307.762
1650.035, 1311.547
1651.963, 1319.435
1653.892, 1323.702
1655.820, 1324.391
1657.749, 1321.546
1659.677, 1313.251
1661.605, 1305.536
1663.534, 1300.942
1665.462, 1296.338
1667.391, 1285.232
1669.319, 1272.370
1671.248, 1276.886
1673.176, 1307.420
1675.105, 1325.697
1677.033, 1320.632
1678.962, 1312.311
1680.890, 1303.084
1682.819, 1295.774
1684.747, 1294.351
1686.676, 1298.816
1688.604, 1303.229
1690.532, 1309.242
1692.461, 1311.771
1694.389, 1306.735
1696.318, 1301.833
1698.246, 1301.662
1700.175, 1303.553
1702.103, 1301.445
1704.032, 1294.063
1705.960, 1293.911
1707.889, 1307.859
1709.817, 1317.641
1711.746, 1314.471
1713.674, 1310.643
1715.603, 1319.052
1717.531, 1333.060
1719.459, 1328.387
1721.388, 1299.845
1723.316, 1281.181
1725.245, 1281.005
1727.173, 1282.543
1729.102, 1280.674
1731.030, 1278.194
1732.959, 1276.439
1734.887, 1275.990
1736.816, 1281.686
1738.744, 1296.996
1740.673, 1301.233
1742.601, 1281.727
1744.530, 1265.117
1746.458, 1263.416
1748.386, 1268.947
1750.315, 1277.100
1752.243, 1286.448
1754.172, 1287.552
1756.100, 1277.384
1758.029, 1272.321
1759.957, 1281.176
1761.886, 1287.315
1763.814, 1279.131
1765.743, 1266.950
1767.671, 1262.334
1769.600, 1263.938
1771.528, 1262.940
1773.457, 1256.792
1775.385, 1258.375
1777.313, 1278.015
1779.242, 1294.044
1781.170, 1291.173
1783.099, 1281.538
1785.027, 1277.841
1786.956, 1279.485
1788.884, 1285.442
1790.813, 1298.179
1792.741, 1304.017
1794.670, 1294.127
1796.598, 1286.034
1798.527, 1290.990
1800.455, 1299.215
1802.384, 1300.512
1804.312, 1295.499
1806.240, 1286.635
1808.169, 1269.830
1810.097, 1264.384
1812.026, 1285.966
1813.954, 1301.742
1815.883, 1294.872
1817.811, 1281.875
1819.740, 1276.197
1821.668, 1277.613
1823.597, 1286.944
1825.525, 1310.835
1827.454, 1323.488
1829.382, 1316.069
1831.311, 1309.648
1833.239, 1310.778
1835.167, 1313.321
1837.096, 1312.736
1839.024, 1310.168
1840.953, 1308.283
1842.881, 1307.101
1844.810, 1306.301
1846.738, 1307.592
1848.667, 1305.877
1850.595, 1296.059
1852.524, 1288.077
1854.452, 1290.511
1856.381, 1296.240
1858.309, 1292.159
1860.238, 1279.502
1862.166, 1277.220
1864.094, 1288.373
1866.023, 1300.532
1867.951, 1313.858
1869.880, 1323.504
1871.808, 1325.310
1873.737, 1323.749
1875.665, 1322.319
1877.594, 1320.694
1879.522, 1316.788
1881.451, 1310.229
1883.379, 1311.231
1885.308, 1325.558
1887.236, 1336.712
1889.165, 1340.066
1891.093, 1338.140
1893.021, 1327.066
1894.950, 1314.493
1896.878, 1315.279
1898.807, 1328.180
1900.735, 1329.120
1902.664, 1309.209
1904.592, 1301.517
1906.521, 1319.341
1908.449, 1335.782
1910.378, 1338.117
1912.306, 1339.861
1914.235, 1358.674
1916.163, 1384.110
1918.092, 1385.522
1920.020, 1356.287
1921.948, 1344.293
1923.877, 1358.726
1925.805, 1371.118
1927.734, 1375.205
1929.662, 1379.184
1931.591, 1387.383
1933.519, 1396.046
1935.448, 1402.310
1937.376, 1406.113
1939.305, 1404.868
1941.233, 1398.227
1943.162, 1401.025
1945.090, 1419.983
1947.019, 1431.814
1948.947, 1422.245
1950.875, 1414.480
1952.804, 1424.999
1954.732, 1440.737
1956.661, 1447.542
1958.589, 1447.306
1960.518, 1446.730
1962.446, 1445.389
1964.375, 1446.368
1966.303, 1451.834
1968.232, 1456.054
1970.160, 1456.362
1972.089, 1457.282
1974.017, 1462.041
1975.946, 1467.846
1977.874, 1470.888
1979.802, 1472.454
1981.731, 1478.474
1983.659, 1490.672
1985.588, 1496.000
1987.516, 1490.970
1989.445, 1486.433
1991.373, 1486.274
1993.302, 1484.191
1995.230, 1475.439
1997.159, 1465.113
1999.087, 1456.898
2001.016, 1450.803
2002.944, 1448.285
2004.873, 1448.964
2006.801, 1443.446
2008.729, 1427.696
2010.658, 1417.685
2012.586, 1421.865
2014.515, 1424.444
2016.443, 1416.861
2018.372, 1409.298
2020.300, 1410.225
2022.229, 1415.651
2024.157, 1418.237
2026.086, 1418.217
2028.014, 1422.603
2029.943, 1435.542
2031.871, 1437.472
2033.800, 1418.714
2035.728, 1407.237
2037.656, 1418.224
2039.585, 1426.992
2041.513, 1414.679
2043.442, 1399.680
2045.370, 1402.430
2047.299, 1415.244
2049.227, 1418.985
2051.156, 1413.897
2053.084, 1413.355
2055.013, 1419.600
2056.941, 1425.623
2058.870, 1431.033
2060.798, 1435.088
2062.727, 1435.151
2064.655, 1436.337
2066.583, 1442.864
2068.512, 1451.633
2070.440, 1458.766
2072.369, 1464.656
2074.297, 1472.020
2076.226, 1481.842
2078.154, 1483.825
2080.083, 1476.390
2082.011, 1464.270
2083.940, 1438.372
2085.868, 1427.473
2087.797, 1456.802
2089.725, 1488.724
2091.654, 1494.651
2093.582, 1490.105
2095.510, 1496.683
2097.439, 1510.810
2099.367, 1518.863
2101.296, 1521.107
2103.224, 1516.646
2105.153, 1495.341
2107.081, 1485.363
2109.010, 1496.505
2110.938, 1506.162
2112.867, 1503.960
2114.795, 1504.449
2116.724, 1519.554
2118.652, 1538.558
2120.581, 1550.243
2122.509, 1556.190
2124.438, 1559.789
2126.366, 1561.099
2128.294, 1560.633
2130.223, 1557.223
2132.151, 1556.768
2134.080, 1555.099
2136.008, 1564.513
2137.937, 1603.032
2139.865, 1632.985
2141.794, 1632.310
2143.722, 1621.862
2145.651, 1618.640
2147.579, 1618.727
2149.508, 1612.276
2151.436, 1602.059
2153.365, 1606.324
2155.293, 1625.419
2157.221, 1640.001
2159.150, 1648.121
2161.078, 1651.460
2163.007, 1646.317
2164.935, 1644.103
2166.864, 1650.780
2168.792, 1658.724
2170.721, 1665.521
2172.649, 1669.886
2174.578, 1671.278
2176.506, 1668.903
2178.435, 1657.934
2180.363, 1640.088
2182.292, 1635.031
2184.220, 1643.737
2186.148, 1651.462
2188.077, 1657.329
2190.005, 1661.965
2191.934, 1664.629
2193.862, 1668.306
2195.791, 1680.140
2197.719, 1685.320
2199.648, 1665.427
2201.576, 1645.756
2203.505, 1654.797
2205.433, 1676.120
2207.362, 1681.784
2209.290, 1674.649
2211.219, 1668.419
2213.147, 1663.184
2215.075, 1662.819
2217.004, 1668.610
2218.932, 1673.159
2220.861, 1676.534
2222.789, 1675.182
2224.718, 1663.568
2226.646, 1653.977
2228.575, 1650.001
2230.503, 1651.263
2232.432, 1660.286
2234.360, 1671.908
2236.289, 1682.181
2238.217, 1689.478
2240.146, 1688.338
2242.074, 1680.121
2244.002, 1676.600
2245.931, 1677.888
2247.859, 1679.749
2249.788, 1682.402
2251.716, 1683.312
2253.645, 1681.342
2255.573, 1679.684
2257.502, 1680.482
2259.430, 1679.954
2261.359, 1673.083
2263.287, 1668.757
2265.216, 1675.335
2267.144, 1684.948
2269.073, 1691.038
2271.001, 1693.732
2272.929, 1690.014
2274.858, 1683.261
2276.786, 1687.431
2278.715, 1701.706
2280.643, 1708.275
2282.572, 1704.264
2284.500, 1700.124
2286.429, 1694.390
2288.357, 1692.069
2290.286, 1692.405
2292.214, 1698.412
2294.143, 1720.553
2296.071, 1735.478
2298.000, 1725.132
2299.928, 1714.507
2301.856, 1726.913
2303.785, 1742.887
2305.713, 1738.315
2307.642, 1723.282
2309.570, 1717.634
2311.499, 1719.219
2313.427, 1714.479
2315.356, 1685.142
2317.284, 1708.805
2319.213, 1723.430
2321.141, 1729.500
2323.070, 1701.396
2324.998, 1717.420
2326.927, 1715.761
2328.855, 1713.375
2330.783, 1735.610
2332.712, 1712.477
2334.640, 1734.321
2336.569, 1738.213
2338.497, 1750.320
2340.426, 1744.635
2342.354, 1751.062
2344.283, 1768.841
2346.211, 1770.460
2348.140, 1762.884
2350.068, 1759.103
2351.997, 1759.619
2353.925, 1769.044
2355.854, 1787.585
2357.782, 1796.390
2359.710, 1792.594
2361.639, 1787.476
2363.567, 1774.977
2365.496, 1779.057
2367.424, 1814.137
2369.353, 1832.802
2371.281, 1816.451
2373.210, 1800.716
2375.138, 1799.632
2377.067, 1801.738
2378.995, 1803.119
2380.924, 1803.471
2382.852, 1800.706
2384.781, 1798.442
2386.709, 1803.295
2388.637, 1808.972
2390.566, 1803.441
2392.494, 1792.713
2394.423, 1791.216
2396.351, 1796.873
2398.280, 1801.115
2400.208, 1803.825
2402.137, 1806.539
2404.065, 1808.272
2405.994, 1814.306
2407.922, 1827.973
2409.851, 1833.724
2411.779, 1828.787
2413.708, 1821.883
2415.636, 1811.802
2417.564, 1808.793
2419.493, 1823.828
2421.421, 1833.394
2423.350, 1820.458
2425.278, 1811.578
2427.207, 1825.273
2429.135, 1839.734
2431.064, 1838.373
2432.992, 1833.182
2434.921, 1836.125
2436.849, 1840.186
2438.778, 1835.296
2440.706, 1827.641
2442.635, 1828.875
2444.563, 1835.655
2446.491, 1839.585
2448.420, 1840.311
2450.348, 1832.342
2452.277, 1816.301
2454.205, 1811.739
2456.134, 1818.895
2458.062, 1828.667
2459.991, 1841.042
2461.919, 1849.865
2463.848, 1857.081
2465.776, 1854.021
2467.705, 1828.017
2469.633, 1813.865
2471.562, 1819.272
2473.490, 1826.741
2475.418, 1834.737
2477.347, 1838.734
2479.275, 1832.295
2481.204, 1828.257
2483.132, 1832.084
2485.061, 1840.490
2486.989, 1860.826
2488.918, 1874.713
2490.846, 1858.958
2492.775, 1840.786
2494.703, 1848.895
2496.632, 1865.290
2498.560, 1868.585
2500.489, 1867.106
2502.417, 1875.528
2504.345, 1888.099
2506.274, 1890.258
2508.202, 1886.038
2510.131, 1894.205
2512.059, 1910.474
2513.988, 1910.111
2515.916, 1895.478
2517.845, 1887.095
2519.773, 1886.044
2521.702, 1874.146
2523.630, 1843.304
2525.559, 1839.633
2527.487, 1868.689
2529.416, 1898.763
2531.344, 1931.151
2533.272, 1945.720
2535.201, 1935.568
2537.129, 1925.933
2539.058, 1917.413
2540.986, 1918.414
2542.915, 1939.920
2544.843, 1953.574
2546.772, 1947.415
2548.700, 1946.628
2550.629, 1962.159
2552.557, 1976.033
2554.486, 1978.459
2556.414, 1980.291
2558.343, 1988.557
2560.271, 1995.201
2562.199, 1993.644
2564.128, 1992.517
2566.056, 1998.032
2567.985, 2005.059
2569.913, 2010.930
2571.842, 2015.279
2573.770, 2016.024
2575.699, 2016.499
2577.627, 2019.177
2579.556, 2024.818
2581.484, 2038.108
2583.413, 2052.466
2585.341, 2055.132
2587.270, 2054.389
2589.198, 2066.163
2591.126, 2082.802
2593.055, 2085.603
2594.983, 2080.676
2596.912, 2086.921
2598.840, 2100.414
2600.769, 2107.650
2602.697, 2109.237
2604.626, 2106.496
2606.554, 2100.376
2608.483, 2094.536
2610.411, 2089.569
2612.340, 2093.039
2614.268, 2104.845
2616.197, 2113.918
2618.125, 2119.902
2620.053, 2119.992
2621.982, 2113.729
2623.910, 2110.215
2625.839, 2110.485
2627.767, 2108.412
2629.696, 2103.960
2631.624, 2097.173
2633.553, 2087.509
2635.481, 2086.113
2637.410, 2095.719
2639.338, 2101.772
2641.267, 2103.503
2643.195, 2098.099
2645.124, 2082.084
2647.052, 2069.877
2648.980, 2064.755
2650.909, 2049.240
2652.837, 2015.102
2654.766, 1995.123
2656.694, 2008.860
2658.623, 2009.667
2660.551, 1984.068
2662.480, 1970.645
2664.408, 1979.899
2666.337, 1977.541
2668.265, 1947.462
2670.194, 1931.658
2672.122, 1955.257
2674.051, 1967.659
2675.979, 1958.584
2677.907, 1941.871
2679.836, 1915.575
2681.764, 1893.288
2683.693, 1880.202
2685.621, 1867.674
2687.550, 1849.777
2689.478, 1837.825
2691.407, 1841.987
2693.335, 1837.960
2695.264, 1813.274
2697.192, 1799.120
2699.121, 1817.156
2701.049, 1822.336
2702.978, 1785.864
2704.906, 1758.575
2706.834, 1761.338
2708.763, 1763.159
2710.691, 1755.288
2712.620, 1749.673
2714.548, 1753.200
2716.477, 1753.922
2718.405, 1745.538
2720.334, 1736.689
2722.262, 1729.766
2724.191, 1722.220
2726.119, 1714.083
2728.048, 1704.130
2729.976, 1690.568
2731.905, 1678.140
2733.833, 1667.063
2735.761, 1659.987
2737.690, 1658.967
2739.618, 1658.814
2741.547, 1658.269
2743.475, 1657.651
2745.404, 1660.948
2747.332, 1657.512
2749.261, 1637.173
2751.189, 1622.584
2753.118, 1622.281
2755.046, 1617.676
2756.975, 1600.607
2758.903, 1585.326
2760.832, 1574.366
2762.760, 1569.379
2764.688, 1575.101
2766.617, 1576.739
2768.545, 1567.530
2770.474, 1566.342
2772.402, 1585.077
2774.331, 1596.541
2776.259, 1591.117
2778.188, 1584.650
2780.116, 1577.535
2782.045, 1574.183
2783.973, 1576.006
2785.902, 1580.060
2787.830, 1584.476
2789.759, 1594.295
2791.687, 1616.113
2793.615, 1622.736
2795.544, 1608.723
2797.472, 1592.789
2799.401, 1576.543
2801.329, 1563.564
2803.258, 1550.053
2805.186, 1554.868
2807.115, 1584.467
2809.043, 1590.165
2810.972, 1565.724
2812.900, 1550.690
2814.829, 1550.235
2816.757, 1555.148
2818.686, 1566.687
2820.614, 1573.274
2822.542, 1574.597
2824.471, 1570.559
2826.399, 1561.052
2828.328, 1554.723
2830.256, 1551.638
2832.185, 1547.653
2834.113, 1543.176
2836.042, 1541.035
2837.970, 1541.510
2839.899, 1546.561
2841.827, 1554.358
2843.756, 1554.133
2845.684, 1548.245
2847.613, 1545.872
2849.541, 1546.785
2851.469, 1554.499
2853.398, 1563.159
2855.326, 1557.994
2857.255, 1546.129
2859.183, 1541.317
2861.112, 1539.711
2863.040, 1534.508
2864.969, 1529.249
2866.897, 1531.831
2868.826, 1532.955
2870.754, 1512.699
2872.683, 1496.058
2874.611, 1517.260
2876.540, 1537.978
2878.468, 1522.130
2880.396, 1502.838
2882.325, 1504.253
2884.253, 1508.629
2886.182, 1506.535
2888.110, 1504.560
2890.039, 1503.177
2891.967, 1506.979
2893.896, 1526.630
2895.824, 1536.088
2897.753, 1523.882
2899.681, 1513.458
2901.610, 1510.721
2903.538, 1511.563
2905.467, 1519.588
2907.395, 1521.763
2909.323, 1515.650
2911.252, 1510.311
2913.180, 1505.878
2915.109, 1511.460
2917.037, 1534.508
2918.966, 1541.287
2920.894, 1530.344
2922.823, 1522.690
2924.751, 1519.035
2926.680, 1524.445
2928.608, 1536.892
2930.537, 1534.308
2932.465, 1520.853
2934.394, 1523.958
2936.322, 1534.397
2938.250, 1520.536
2940.179, 1499.654
2942.107, 1514.662
2944.036, 1540.911
2945.964, 1537.303
2947.893, 1522.605
2949.821, 1509.724
2951.750, 1506.199
2953.678, 1530.984
2955.607, 1552.492
2957.535, 1546.497
2959.464, 1530.749
2961.392, 1497.678
2963.321, 1483.310
2965.249, 1524.573
2967.177, 1550.141
2969.106, 1537.541
2971.034, 1521.204
2972.963, 1507.181
2974.891, 1496.910
2976.820, 1491.356
2978.748, 1487.347
2980.677, 1483.984
2982.605, 1490.560
2984.534, 1508.504
2986.462, 1518.892
2988.391, 1521.329
2990.319, 1507.894
2992.248, 1484.711
2994.176, 1494.672
2996.104, 1523.862
2998.033, 1529.580
2999.961, 1519.570
3001.890, 1503.223
3003.818, 1488.783
3005.747, 1488.894
3007.675, 1495.574
3009.604, 1503.343
3011.532, 1510.964
3013.461, 1519.341
3015.389, 1524.657
3017.318, 1526.338
3019.246, 1523.213
3021.175, 1511.378
3023.103, 1501.681
3025.031, 1496.615
3026.960, 1492.324
3028.888, 1487.677
3030.817, 1484.443
3032.745, 1480.151
3034.674, 1487.319
3036.602, 1506.089
3038.531, 1529.661
3040.459, 1554.250
3042.388, 1547.400
3044.316, 1518.262
3046.245, 1503.234
3048.173, 1498.620
3050.102, 1498.025
3052.030, 1500.288
3053.959, 1506.283
3055.887, 1511.943
3057.816, 1511.963
3059.744, 1512.275
3061.673, 1519.642
3063.601, 1524.082
3065.530, 1517.995
3067.458, 1513.355
3069.386, 1512.653
3071.315, 1513.630
3073.243, 1516.039
3075.172, 1518.642
3077.100, 1523.371
3079.029, 1514.613
3080.957, 1493.608
3082.886, 1488.627
3084.814, 1498.416
3086.743, 1508.170
3088.671, 1516.548
3090.600, 1515.759
3092.528, 1512.811
3094.457, 1522.729
3096.385, 1530.568
3098.313, 1508.994
3100.242, 1494.305
3102.170, 1518.688
3104.099, 1538.844
3106.027, 1533.654
3107.956, 1521.330
3109.884, 1501.205
3111.813, 1492.417
3113.741, 1499.715
3115.670, 1506.923
3117.598, 1511.708
3119.527, 1520.171
3121.455, 1530.345
3123.384, 1521.416
3125.312, 1501.565
3127.240, 1496.511
3129.169, 1503.580
3131.097, 1525.676
3133.026, 1547.642
3134.954, 1553.907
3136.883, 1553.627
3138.811, 1550.139
3140.740, 1547.165
3142.668, 1546.975
3144.597, 1544.483
3146.525, 1534.903
3148.454, 1528.872
3150.382, 1526.723
3152.311, 1532.060
3154.239, 1544.447
3156.167, 1540.682
3158.096, 1524.534
3160.024, 1519.178
3161.953, 1521.941
3163.881, 1530.980
3165.810, 1538.606
3167.738, 1529.089
3169.667, 1521.914
3171.595, 1536.417
3173.524, 1549.623
3175.452, 1551.613
3177.381, 1547.868
3179.309, 1535.732
3181.238, 1531.236
3183.166, 1537.288
3185.094, 1534.896
3187.023, 1522.240
3188.951, 1519.818
3190.880, 1525.782
3192.808, 1535.473
3194.737, 1544.806
3196.665, 1543.412
3198.594, 1541.162
3200.522, 1553.503
3202.451, 1562.257
3204.379, 1555.333
3206.308, 1544.038
3208.236, 1527.617
3210.165, 1520.020
3212.093, 1524.987
3214.021, 1527.491
3215.950, 1525.173
3217.878, 1532.157
3219.807, 1546.034
3221.735, 1555.847
3223.664, 1560.537
3225.592, 1551.985
3227.521, 1543.967
3229.449, 1559.475
3231.378, 1571.411
3233.306, 1558.475
3235.235, 1546.511
3237.163, 1544.586
3239.092, 1544.552
3241.020, 1546.016
3242.948, 1543.799
3244.877, 1536.469
3246.805, 1546.112
3248.734, 1566.518
3250.662, 1580.119
3252.591, 1582.405
3254.519, 1551.249
3256.448, 1523.907
3258.376, 1541.274
3260.305, 1559.307
3262.233, 1551.955
3264.162, 1547.667
3266.090, 1553.523
3268.019, 1555.205
3269.947, 1549.685
3271.875, 1548.937
3273.804, 1553.084
3275.732, 1566.639
3277.661, 1582.060
3279.589, 1584.910
3281.518, 1579.456
3283.446, 1562.151
3285.375, 1551.657
3287.303, 1567.941
3289.232, 1575.497
3291.160, 1557.301
3293.089, 1549.770
3295.017, 1556.453
3296.946, 1568.997
3298.874, 1584.696
3300.802, 1582.115
3302.731, 1568.399
3304.659, 1552.819
3306.588, 1545.964
3308.516, 1569.073
3310.445, 1591.040
3312.373, 1598.362
3314.302, 1596.527
3316.230, 1580.180
3318.159, 1570.707
3320.087, 1569.006
3322.016, 1568.097
3323.944, 1567.525
3325.873, 1567.036
3327.801, 1565.872
3329.729, 1560.979
3331.658, 1556.370
3333.586, 1552.031
3335.515, 1555.358
3337.443, 1574.460
3339.372, 1582.232
3341.300, 1567.463
3343.229, 1564.258
3345.157, 1573.413
3347.086, 1577.129
3349.014, 1576.277
3350.943, 1572.707
3352.871, 1568.058
3354.800, 1561.442
3356.728, 1558.939
3358.656, 1566.419
3360.585, 1573.956
3362.513, 1578.927
3364.442, 1586.128
3366.370, 1596.335
3368.299, 1605.980
3370.227, 1613.049
3372.156, 1602.362
3374.084, 1588.181
3376.013, 1591.885
3377.941, 1597.106
3379.870, 1593.300
3381.798, 1585.247
3383.727, 1569.173
3385.655, 1566.770
3387.583, 1581.038
3389.512, 1585.477
3391.440, 1580.525
3393.369, 1565.055
3395.297, 1551.726
3397.226, 1565.135
3399.154, 1582.952
3401.083, 1591.618
3403.011, 1598.985
3404.940, 1606.665
3406.868, 1616.313
3408.797, 1628.605
3410.725, 1611.860
3412.654, 1577.925
3414.582, 1582.254
3416.510, 1596.948
3418.439, 1583.192
3420.367, 1572.953
3422.296, 1589.080
3424.224, 1597.305
3426.153, 1580.714
3428.081, 1577.171
3430.010, 1587.011
3431.938, 1603.301
3433.867, 1618.199
3435.795, 1603.919
3437.724, 1590.833
3439.652, 1618.127
3441.581, 1638.767
3443.509, 1623.450
3445.438, 1614.670
3447.366, 1617.730
3449.294, 1610.639
3451.223, 1595.122
3453.151, 1587.678
3455.080, 1588.136
3457.008, 1597.973
3458.937, 1611.073
3460.865, 1630.262
3462.794, 1635.363
3464.722, 1615.760
3466.651, 1617.749
3468.579, 1645.100
3470.508, 1648.273
3472.436, 1637.270
3474.365, 1634.886
3476.293, 1633.550
3478.221, 1620.781
3480.150, 1617.340
3482.078, 1641.206
3484.007, 1652.032
3485.935, 1646.787
3487.864, 1636.490
3489.792, 1623.909
3491.721, 1612.834
3493.649, 1609.000
3495.578, 1625.822
3497.506, 1639.216
3499.435, 1632.792
3501.363, 1630.740
3503.292, 1636.333
3505.220, 1632.817
3507.148, 1623.494
3509.077, 1631.408
3511.005, 1641.883
3512.934, 1634.708
3514.862, 1624.852
3516.791, 1618.021
3518.719, 1615.019
3520.648, 1615.336
3522.576, 1629.544
3524.505, 1653.733
3526.433, 1664.226
3528.362, 1661.998
3530.290, 1634.917
3532.219, 1617.924
3534.147, 1633.649
3536.075, 1641.351
3538.004, 1628.474
3539.932, 1621.490
3541.861, 1621.688
3543.789, 1638.795
3545.718, 1656.604
3547.646, 1651.608
3549.575, 1640.084
3551.503, 1616.793
3553.432, 1621.518
3555.360, 1659.593
3557.289, 1666.908
3559.217, 1652.213
3561.146, 1663.455
3563.074, 1671.775
3565.002, 1634.837
3566.931, 1609.668
3568.859, 1624.617
3570.788, 1651.971
3572.716, 1688.027
3574.645, 1665.972
3576.573, 1615.057
3578.502, 1618.135
3580.430, 1635.692
3582.359, 1640.196
3584.287, 1641.060
3586.216, 1640.321
3588.144, 1637.502
3590.073, 1633.383
3592.001, 1637.211
3593.929, 1645.290
3595.858, 1654.870
3597.786, 1659.891
3599.715, 1656.328
3601.643, 1647.874
3603.572, 1633.383
3605.500, 1624.417
3607.429, 1622.852
3609.357, 1642.664
3611.286, 1663.705
3613.214, 1661.234
3615.143, 1659.927
3617.071, 1670.615
3619.000, 1667.285
3620.928, 1648.976
3622.856, 1643.272
3624.785, 1646.472
3626.713, 1655.838
3628.642, 1664.461
3630.570, 1668.385
3632.499, 1671.636
3634.427, 1675.606
3636.356, 1672.160
3638.284, 1663.723
3640.213, 1658.075
3642.141, 1654.294
3644.070, 1650.371
3645.998, 1650.931
3647.927, 1663.741
3649.855, 1664.416
3651.783, 1655.581
3653.712, 1650.150
3655.640, 1653.393
3657.569, 1691.097
3659.497, 1708.884
3661.426, 1657.979
3663.354, 1641.865
3665.283, 1665.198
3667.211, 1686.657
3669.140, 1700.585
3671.068, 1690.123
3672.997, 1679.725
3674.925, 1686.629
3676.854, 1692.085
3678.782, 1693.546
3680.710, 1680.412
3682.639, 1661.225
3684.567, 1660.119
3686.496, 1666.584
3688.424, 1678.038
3690.353, 1682.672
3692.281, 1678.266
3694.210, 1669.604
3696.138, 1659.149
3698.067, 1653.305
3699.995, 1653.322
3701.924, 1664.323
3703.852, 1671.519
3705.781, 1671.408
3707.709, 1663.987
3709.637, 1654.238
3711.566, 1667.034
3713.494, 1684.995
3715.423, 1688.290
3717.351, 1693.424
3719.280, 1707.682
3721.208, 1708.033
3723.137, 1696.151
3725.065, 1690.379
3726.994, 1687.838
3728.922, 1685.809
3730.851, 1685.618
3732.779, 1689.109
3734.708, 1687.018
3736.636, 1680.938
3738.564, 1685.811
3740.493, 1691.516
3742.421, 1681.991
3744.350, 1680.358
3746.278, 1697.797
3748.207, 1702.081
3750.135, 1694.763
3752.064, 1694.880
3753.992, 1694.993
3755.921, 1684.086
3757.849, 1679.174
3759.778, 1685.948
3761.706, 1695.355
3763.635, 1703.862
3765.563, 1695.588
3767.491, 1687.480
3769.420, 1701.331
3771.348, 1701.598
3773.277, 1677.416
3775.205, 1672.571
3777.134, 1683.190
3779.062, 1691.571
3780.991, 1702.802
3782.919, 1728.931
3784.848, 1735.160
3786.776, 1716.074
3788.705, 1701.770
3790.633, 1696.142
3792.562, 1715.595
3794.490, 1728.627
3796.418, 1708.656
3798.347, 1700.402
3800.275, 1707.230
3802.204, 1713.809
3804.132, 1720.794
3806.061, 1735.260
3807.989, 1741.797
3809.918, 1728.295
3811.846, 1725.996
3813.775, 1733.012
3815.703, 1727.562
3817.632, 1718.062
3819.560, 1710.435
3821.489, 1709.909
3823.417, 1720.623
3825.345, 1731.704
3827.274, 1741.126
3829.202, 1745.276
3831.131, 1742.594
3833.059, 1728.941
3834.988, 1721.274
3836.916, 1723.235
3838.845, 1730.703
3840.773, 1737.590
3842.702, 1732.019
3844.630, 1724.397
3846.559, 1716.841
3848.487, 1720.925
3850.416, 1734.363
3852.344, 1737.545
3854.272, 1739.725
3856.201, 1754.080
3858.129, 1758.329
3860.058, 1747.586
3861.986, 1748.151
3863.915, 1751.610
3865.843, 1723.608
3867.772, 1712.065
3869.700, 1753.935
3871.629, 1778.151
3873.557, 1777.582
3875.486, 1751.433
3877.414, 1727.800
3879.343, 1746.080
3881.271, 1753.812
3883.199, 1735.747
3885.128, 1735.789
3887.056, 1747.119
3888.985, 1729.351
3890.913, 1713.746
3892.842, 1730.785
3894.770, 1737.381
3896.699, 1732.906
3898.627, 1738.645
3900.556, 1750.227
3902.484, 1769.439
3904.413, 1773.855
3906.341, 1753.334
3908.270, 1746.615
3910.198, 1753.057
3912.126, 1760.138
3914.055, 1758.925
3915.983, 1750.234
3917.912, 1757.427
3919.840, 1771.861
3921.769, 1767.185
3923.697, 1762.533
3925.626, 1765.703
3927.554, 1755.531
3929.483, 1733.167
3931.411, 1736.844
3933.340, 1754.327
3935.268, 1772.483
3937.197, 1781.107
3939.125, 1781.497
3941.053, 1765.160
3942.982, 1744.399
3944.910, 1753.036
3946.839, 1755.026
3948.767, 1733.337
3950.696, 1730.577
3952.624, 1736.109
3954.553, 1742.161
3956.481, 1744.295
3958.410, 1730.516
3960.338, 1723.138
3962.267, 1724.966
3964.195, 1729.184
3966.124, 1730.036
3968.052, 1726.308
3969.980, 1735.807
3971.909, 1757.867
3973.837, 1752.152
3975.766, 1741.289
3977.694, 1731.414
3979.623, 1723.693
3981.551, 1732.764
3983.480, 1733.749
3985.408, 1724.821
3987.337, 1733.188
3989.265, 1751.376
3991.194, 1753.196
3993.122, 1746.563
3995.051, 1746.235
3996.979, 1749.825
3998.907, 1744.548
4000.836, 1737.246
4002.764, 1742.108
4004.693, 1744.613
4006.621, 1737.212
4008.550, 1737.086
4010.478, 1748.100
4012.407, 1747.547
4014.335, 1736.728
4016.264, 1733.096
4018.192, 1733.380
4020.121, 1751.098
4022.049, 1758.544
4023.978, 1741.737
4025.906, 1738.345
4027.834, 1734.606
4029.763, 1734.764
4031.691, 1732.856
4033.620, 1721.724
4035.548, 1716.868
4037.477, 1716.512
4039.405, 1719.392
4041.334, 1723.580
4043.262, 1729.927
4045.191, 1741.760
4047.119, 1750.488
4049.048, 1747.285
4050.976, 1748.003
4052.905, 1763.996
4054.833, 1754.566
4056.761, 1730.574
4058.690, 1730.817
4060.618, 1733.144
4062.547, 1727.866
4064.475, 1736.457
4066.404, 1749.914
4068.332, 1739.267
4070.261, 1731.240
4072.189, 1737.371
4074.118, 1751.951
4076.046, 1769.453
4077.975, 1771.822
4079.903, 1765.980
4081.832, 1752.950
4083.760, 1744.455
4085.688, 1739.130
4087.617, 1738.200
4089.545, 1743.780
4091.474, 1758.845
4093.402, 1760.817
4095.331, 1748.994
4097.259, 1752.735
4099.188, 1758.223
4101.116, 1753.648
4103.045, 1753.623
4104.973, 1756.038
4106.902, 1747.907
4108.830, 1738.682
4110.759, 1735.178
4112.687, 1739.428
4114.616, 1750.172
4116.544, 1751.038
4118.473, 1750.250
4120.401, 1753.302
4122.330, 1754.910
4124.258, 1754.788
4126.187, 1756.276
4128.115, 1757.769
4130.043, 1767.094
4131.972, 1777.226
4133.900, 1767.126
4135.829, 1758.940
4137.757, 1762.953
4139.686, 1769.288
4141.614, 1768.245
4143.542, 1753.284
4145.471, 1745.392
4147.399, 1743.198
4149.328, 1769.030
4151.256, 1794.677
4153.185, 1772.366
4155.113, 1752.021
4157.042, 1751.375
4158.970, 1766.716
4160.899, 1779.329
4162.827, 1779.322
4164.756, 1775.912
4166.684, 1770.265
4168.613, 1777.113
4170.541, 1791.142
4172.470, 1794.746
4174.398, 1786.872
4176.327, 1776.290
4178.255, 1771.880
4180.184, 1777.197
4182.112, 1797.254
4184.041, 1813.307
4185.969, 1822.772
4187.897, 1802.274
4189.826, 1779.142
4191.754, 1790.505
4193.683, 1804.739
4195.611, 1811.631
4197.540, 1797.036
4199.468, 1783.426
4201.396, 1793.821
4203.325, 1803.431
4205.253, 1810.562
4207.182, 1825.688
4209.110, 1838.030
4211.039, 1835.424
4212.967, 1831.090
4214.896, 1826.827
4216.824, 1812.098
4218.753, 1801.370
4220.681, 1811.575
4222.610, 1810.146
4224.538, 1797.967
4226.467, 1803.573
4228.395, 1814.897
4230.324, 1824.163
4232.252, 1821.401
4234.181, 1809.956
4236.109, 1814.768
4238.038, 1822.774
4239.966, 1821.711
4241.895, 1832.915
4243.823, 1849.946
4245.751, 1833.531
4247.680, 1818.927
4249.608, 1831.341
4251.537, 1840.556
4253.465, 1848.180
4255.394, 1869.797
4257.322, 1877.333
4259.250, 1844.202
4261.179, 1840.953
4263.107, 1851.996
4265.036, 1834.916
4266.964, 1835.375
4268.893, 1880.760
4270.821, 1875.287
4272.750, 1850.445
4274.678, 1853.618
4276.607, 1861.175
4278.535, 1867.620
4280.464, 1883.149
4282.392, 1893.481
4284.321, 1872.901
4286.249, 1865.890
4288.178, 1877.923
4290.106, 1900.020
4292.035, 1913.666
4293.963, 1894.340
4295.892, 1886.768
4297.820, 1891.975
4299.749, 1905.048
4301.677, 1912.230
4303.605, 1901.189
4305.534, 1906.782
4307.462, 1917.294
4309.391, 1890.793
4311.319, 1880.794
4313.248, 1909.464
4315.176, 1925.510
4317.104, 1928.039
4319.033, 1905.775
4320.961, 1903.544
4322.890, 1928.935
4324.818, 1912.261
4326.747, 1894.418
4328.675, 1911.883
4330.604, 1914.937
4332.532, 1905.604
4334.461, 1925.832
4336.389, 1937.374
4338.318, 1920.488
4340.246, 1911.772
4342.175, 1911.777
4344.103, 1919.682
4346.032, 1930.193
4347.960, 1940.912
4349.889, 1912.746
4351.817, 1881.476
4353.746, 1880.036
4355.674, 1911.323
4357.603, 1959.961
4359.531, 1952.766
4361.459, 1936.284
4363.388, 1937.630
4365.316, 1938.812
4367.245, 1942.772
4369.173, 1968.908
4371.102, 1971.572
4373.030, 1933.613
4374.958, 1934.548
4376.887, 1949.293
4378.815, 1946.321
4380.744, 1958.863
4382.672, 1984.604
4384.601, 1991.590
4386.529, 1979.941
4388.458, 1940.292
4390.386, 1937.239
4392.315, 1953.926
4394.243, 1955.044
4396.172, 1962.824
4398.100, 1980.842
4400.029, 1951.391
4401.957, 1931.270
4403.886, 1975.775
4405.814, 1983.608
4407.743, 1961.006
4409.671, 1958.957
4411.600, 1958.802
4413.528, 1953.566
4415.457, 1962.621
4417.385, 1977.020
4419.313, 1990.375
4421.242, 1983.675
4423.170, 1963.173
4425.099, 1987.228
4427.027, 2004.101
4428.956, 1975.714
4430.884, 1970.189
4432.813, 1976.682
4434.741, 1978.130
4436.669, 1972.976
4438.598, 1961.925
4440.526, 1963.250
4442.455, 1969.053
4444.383, 1975.568
4446.312, 1971.213
4448.240, 1964.560
4450.169, 1975.646
4452.097, 1988.740
4454.026, 1999.353
4455.954, 1996.852
4457.883, 1993.517
4459.811, 2001.331
4461.740, 2002.911
4463.668, 2000.254
4465.597, 2001.379
4467.525, 1997.148
4469.454, 1984.847
4471.382, 1978.647
4473.311, 1978.704
4475.239, 1985.350
4477.167, 2006.311
4479.096, 2024.969
4481.024, 1990.843
4482.953, 1976.275
4484.881, 1993.870
4486.810, 2001.381
4488.738, 2003.481
4490.667, 2004.037
4492.595, 2001.225
4494.523, 2000.192
4496.452, 2013.286
4498.380, 2029.479
4500.309, 2045.227
4502.237, 2032.802
4504.166, 2016.491
4506.094, 2009.927
4508.023, 2002.728
4509.951, 1996.141
4511.880, 1993.435
4513.808, 1993.276
4515.737, 1994.132
4517.665, 1987.421
4519.594, 1984.460
4521.522, 1993.146
4523.451, 1996.907
4525.379, 2001.380
4527.308, 2018.529
4529.236, 2016.720
4531.165, 2002.221
4533.093, 2015.749
4535.021, 2024.227
4536.950, 2018.072
4538.878, 2001.972
4540.807, 1990.617
4542.735, 2001.238
4544.664, 1995.010
4546.592, 1980.889
4548.521, 1975.385
4550.449, 1997.535
4552.377, 2044.540
4554.306, 2042.939
4556.234, 2027.294
4558.163, 2013.386
4560.091, 2015.803
4562.020, 2018.162
4563.948, 1991.123
4565.877, 1996.882
4567.805, 2021.993
4569.734, 2003.080
4571.662, 1986.119
4573.591, 1984.274
4575.519, 2008.352
4577.448, 2017.495
4579.376, 1982.653
4581.305, 1992.306
4583.233, 2018.640
4585.162, 2016.512
4587.090, 2005.851
4589.019, 1995.056
4590.947, 2004.654
4592.875, 2015.223
4594.804, 2020.327
4596.732, 2015.625
4598.661, 2014.500
4600.589, 2026.830
4602.518, 2031.392
4604.446, 2026.353
4606.375, 2003.571
4608.303, 1999.597
4610.231, 2010.662
4612.160, 2009.692
4614.088, 2005.673
4616.017, 2001.344
4617.945, 1991.657
4619.874, 1989.046
4621.802, 2000.620
4623.731, 2012.099
4625.659, 2022.318
4627.588, 2037.911
4629.516, 2025.295
4631.445, 1996.671
4633.373, 1987.080
4635.302, 1991.570
4637.230, 2006.651
4639.159, 2014.420
4641.087, 2017.101
4643.016, 2015.717
4644.944, 2019.777
4646.873, 2014.589
4648.801, 1969.916
4650.729, 1992.525
4652.658, 2033.471
4654.586, 2008.490
4656.515, 1983.573
4658.443, 1972.094
4660.372, 1990.043
4662.300, 1998.627
4664.229, 1989.695
4666.157, 1996.299
4668.085, 2008.350
4670.014, 2022.178
4671.942, 2017.734
4673.871, 2004.715
4675.799, 1987.536
4677.728, 1994.707
4679.656, 2009.157
4681.585, 1997.505
4683.513, 2002.862
4685.442, 2020.437
4687.370, 2021.457
4689.299, 2023.537
4691.227, 2027.594
4693.156, 2015.221
4695.084, 2003.880
4697.013, 2000.574
4698.941, 2017.340
4700.870, 2027.304
4702.798, 2012.514
4704.727, 2009.476
4706.655, 2009.936
4708.583, 2001.183
4710.512, 2000.846
4712.440, 2007.612
4714.369, 2023.778
4716.297, 2016.591
4718.226, 1994.914
4720.154, 2001.464
4722.083, 2002.123
4724.011, 1993.618
4725.939, 1995.501
4727.868, 2018.049
4729.796, 2066.673
4731.725, 2022.647
4733.653, 1985.675
4735.582, 2006.840
4737.510, 2008.496
4739.439, 2006.107
4741.367, 2020.562
4743.296, 2026.779
4745.224, 2026.169
4747.153, 2020.166
4749.081, 2014.994
4751.010, 2008.407
4752.938, 1993.230
4754.867, 1979.038
4756.795, 1973.006
4758.724, 2004.276
4760.652, 2003.221
4762.581, 1971.617
4764.509, 1980.078
4766.438, 2001.833
4768.366, 2025.472
4770.294, 2014.276
4772.223, 2002.995
4774.151, 2005.728
4776.080, 2011.968
4778.008, 2020.190
4779.937, 2031.671
4781.865, 2015.136
4783.793, 2003.712
4785.722, 2027.839
4787.650, 2022.402
4789.579, 2004.546
4791.507, 1994.426
4793.436, 1988.000
4795.364, 1989.440
4797.293, 2011.341
4799.221, 2007.599
4801.150, 1992.441
4803.078, 1999.196
4805.007, 2014.688
4806.935, 2029.121
4808.864, 2018.706
4810.792, 2014.599
4812.721, 2019.950
4814.649, 2024.402
4816.578, 2045.481
4818.506, 2072.351
4820.435, 2008.673
4822.363, 1980.186
4824.292, 2007.403
4826.220, 1998.724
4828.148, 1982.876
4830.077, 1972.837
4832.005, 2003.383
4833.934, 2023.593
4835.862, 2015.683
4837.791, 2017.643
4839.719, 2021.688
4841.647, 2023.530
4843.576, 2012.538
4845.504, 2002.586
4847.433, 2001.293
4849.361, 2008.730
4851.290, 2020.323
4853.218, 2037.218
4855.147, 2031.106
4857.075, 2014.745
4859.004, 1996.499
4860.932, 1997.426
4862.861, 2004.205
4864.789, 2003.166
4866.718, 2011.883
4868.646, 2013.368
4870.575, 1990.593
4872.503, 1985.873
4874.432, 1984.467
4876.360, 1961.670
4878.289, 1979.019
4880.217, 1996.479
4882.146, 1965.786
4884.074, 1959.223
4886.002, 1969.071
4887.931, 1984.179
4889.859, 1981.429
4891.788, 1972.540
4893.716, 1970.514
4895.645, 1976.700
4897.573, 1984.189
4899.501, 1984.181
4901.430, 1991.365
4903.358, 1993.198
4905.287, 1962.658
4907.215, 1975.329
4909.144, 1999.941
4911.072, 1993.530
4913.001, 1982.550
4914.929, 1980.180
4916.858, 2007.009
4918.786, 2012.730
4920.715, 1998.797
4922.643, 1964.420
4924.572, 1962.150
4926.500, 1979.238
4928.429, 2003.438
4930.357, 1995.501
4932.286, 1973.669
4934.214, 1951.809
4936.143, 1969.822
4938.071, 1995.854
4940.000, 1996.924
4941.928, 1990.035
4943.856, 1988.654
4945.785, 2016.458
4947.713, 1985.858
4949.642, 1950.889
4951.570, 1955.168
4953.499, 1967.326
4955.427, 1967.549
4957.355, 1938.099
4959.284, 1947.489
4961.212, 1960.709
4963.141, 1955.746
4965.069, 1959.603
4966.998, 1962.027
4968.926, 1956.854
4970.855, 1954.779
4972.783, 1960.382
4974.712, 1975.469
4976.640, 1974.069
4978.569, 1973.592
4980.497, 1978.161
4982.426, 1961.783
4984.354, 1941.883
4986.283, 1927.554
4988.211, 1942.051
4990.140, 1954.215
4992.068, 1954.753
4993.997, 1940.880
4995.925, 1941.225
4997.854, 1955.280
4999.782, 1965.771
5001.710, 1957.032
5003.639, 1943.026
5005.567, 1969.906
5007.496, 1990.722
5009.424, 1994.077
5011.353, 1964.842
5013.281, 1955.921
5015.209, 1961.544
5017.138, 1969.767
5019.066, 1972.109
5020.995, 1963.991
5022.923, 1939.196
5024.852, 1946.490
5026.780, 1959.619
5028.709, 1955.294
5030.637, 1920.716
5032.566, 1904.723
5034.494, 1934.435
5036.423, 1951.141
5038.351, 1958.131
5040.280, 1956.743
5042.208, 1927.259
5044.137, 1925.930
5046.065, 1959.143
5047.994, 1939.568
5049.922, 1937.841
5051.851, 1954.915
5053.779, 1934.983
5055.708, 1931.058
5057.636, 1942.863
5059.564, 1959.698
5061.493, 1953.408
5063.421, 1936.875
5065.350, 1929.887
5067.278, 1920.200
5069.207, 1918.863
5071.135, 1938.882
5073.063, 1928.705
5074.992, 1911.819
5076.920, 1904.089
5078.849, 1914.583
5080.777, 1920.853
5082.706, 1916.891
5084.634, 1927.092
5086.563, 1918.991
5088.491, 1895.735
5090.420, 1902.475
5092.348, 1923.334
5094.277, 1945.859
5096.205, 1955.576
5098.134, 1926.231
5100.062, 1894.627
5101.991, 1911.881
5103.919, 1916.129
5105.848, 1917.057
5107.776, 1930.987
5109.705, 1892.425
5111.633, 1875.200
5113.562, 1903.987
5115.490, 1897.818
5117.418, 1899.934
5119.347, 1913.135
5121.275, 1883.924
5123.204, 1884.268
5125.132, 1906.984
5127.061, 1913.476
5128.989, 1904.832
5130.917, 1891.766
5132.846, 1885.528
5134.774, 1873.472
5136.703, 1868.915
5138.631, 1882.615
5140.560, 1889.335
5142.488, 1876.850
5144.417, 1847.988
5146.345, 1844.240
5148.274, 1841.397
5150.202, 1841.761
5152.131, 1874.801
5154.059, 1864.668
5155.988, 1838.782
5157.916, 1842.305
5159.845, 1844.486
5161.773, 1844.131
5163.702, 1842.107
5165.630, 1847.614
5167.559, 1846.728
5169.487, 1834.934
5171.416, 1818.529
5173.344, 1807.380
5175.272, 1805.810
5177.201, 1823.189
5179.129, 1813.503
5181.058, 1797.687
5182.986, 1804.250
5184.915, 1784.286
5186.843, 1773.280
5188.771, 1790.988
5190.700, 1781.741
5192.628, 1765.375
5194.557, 1750.854
5196.485, 1743.863
5198.414, 1755.809
5200.342, 1768.936
5202.271, 1753.760
5204.199, 1741.393
5206.128, 1739.114
5208.056, 1752.257
5209.985, 1725.173
5211.913, 1731.438
5213.842, 1772.709
5215.770, 1753.820
5217.699, 1735.033
5219.627, 1728.262
5221.556, 1738.487
5223.484, 1749.255
5225.413, 1747.457
5227.341, 1724.344
5229.270, 1714.014
5231.198, 1718.766
5233.126, 1730.630
5235.055, 1716.617
5236.983, 1711.072
5238.912, 1713.057
5240.840, 1714.585
5242.769, 1695.874
5244.697, 1689.821
5246.625, 1715.762
5248.554, 1699.644
5250.482, 1686.255
5252.411, 1683.722
5254.339, 1663.183
5256.268, 1660.533
5258.196, 1669.086
5260.125, 1675.434
5262.053, 1674.957
5263.982, 1671.083
5265.910, 1666.656
5267.839, 1666.430
5269.767, 1668.978
5271.696, 1676.033
5273.624, 1699.993
5275.553, 1689.929
5277.481, 1673.476
5279.410, 1681.828
5281.338, 1663.699
5283.267, 1663.031
5285.195, 1685.031
5287.124, 1681.849
5289.052, 1678.348
5290.980, 1674.979
5292.909, 1665.498
5294.837, 1656.398
5296.766, 1665.385
5298.694, 1695.701
5300.623, 1661.244
5302.551, 1650.547
5304.479, 1668.691
5306.408, 1688.607
5308.336, 1669.977
5310.265, 1644.439
5312.193, 1638.088
5314.122, 1656.384
5316.050, 1668.695
5317.979, 1666.617
5319.907, 1651.204
5321.836, 1640.464
5323.764, 1640.518
5325.693, 1653.962
5327.621, 1665.238
5329.550, 1663.634
5331.478, 1651.814
5333.407, 1649.222
5335.335, 1651.384
5337.264, 1660.412
5339.192, 1681.905
5341.121, 1668.675
5343.049, 1654.610
5344.978, 1652.406
5346.906, 1661.930
5348.834, 1645.756
5350.763, 1619.658
5352.691, 1604.312
5354.620, 1640.979
5356.548, 1642.755
5358.477, 1597.562
5360.405, 1618.630
5362.333, 1636.162
5364.262, 1648.683
5366.190, 1666.976
5368.119, 1659.970
5370.047, 1644.292
5371.976, 1630.131
5373.904, 1624.335
5375.833, 1621.874
5377.761, 1628.457
5379.690, 1653.574
5381.618, 1650.456
5383.547, 1641.284
5385.475, 1640.219
5387.404, 1671.374
5389.332, 1650.910
5391.261, 1624.179
5393.189, 1636.406
5395.118, 1631.184
5397.046, 1631.668
5398.975, 1635.678
5400.903, 1612.664
5402.832, 1616.627
5404.760, 1632.113
5406.688, 1643.870
5408.617, 1635.115
5410.545, 1654.587
5412.474, 1677.776
5414.402, 1647.568
5416.331, 1626.949
5418.259, 1624.146
5420.188, 1634.813
5422.116, 1615.915
5424.044, 1618.014
5425.973, 1629.102
5427.901, 1626.474
5429.830, 1621.308
5431.758, 1618.120
5433.687, 1621.632
5435.615, 1647.254
5437.544, 1638.544
5439.472, 1626.569
5441.401, 1635.821
5443.329, 1620.412
5445.258, 1622.563
5447.186, 1629.218
5449.115, 1604.997
5451.043, 1562.782
5452.972, 1556.918
5454.900, 1592.474
5456.829, 1602.742
5458.757, 1625.793
5460.686, 1632.755
5462.614, 1597.759
5464.542, 1583.514
5466.471, 1594.390
5468.399, 1619.174
5470.328, 1641.166
5472.256, 1638.011
5474.185, 1628.875
5476.113, 1619.784
5478.042, 1588.797
5479.970, 1597.601
5481.898, 1620.603
5483.827, 1627.254
5485.755, 1588.891
5487.684, 1584.033
5489.612, 1608.686
5491.541, 1628.661
5493.469, 1619.099
5495.398, 1603.185
5497.326, 1592.253
5499.255, 1591.471
5501.183, 1576.119
5503.112, 1583.836
5505.040, 1629.680
5506.969, 1618.530
5508.897, 1618.630
5510.826, 1620.569
5512.754, 1595.574
5514.683, 1614.089
5516.611, 1615.637
5518.540, 1595.354
5520.468, 1584.041
5522.396, 1592.368
5524.325, 1592.969
5526.253, 1584.100
5528.182, 1614.349
5530.110, 1632.089
5532.039, 1634.730
5533.967, 1626.582
5535.896, 1600.903
5537.824, 1605.724
5539.752, 1630.516
5541.681, 1655.463
5543.609, 1636.413
5545.538, 1631.122
5547.466, 1640.920
5549.395, 1637.345
5551.323, 1614.019
5553.252, 1614.369
5555.180, 1635.695
5557.109, 1622.853
5559.037, 1620.954
5560.966, 1616.745
5562.894, 1605.441
5564.823, 1615.343
5566.751, 1621.677
5568.680, 1629.620
5570.608, 1643.074
5572.537, 1603.167
5574.465, 1592.720
5576.394, 1609.039
5578.322, 1630.501
5580.250, 1626.311
5582.179, 1613.447
5584.107, 1608.745
5586.036, 1627.203
5587.964, 1649.969
5589.893, 1647.407
5591.821, 1629.877
5593.750, 1632.610
5595.678, 1629.979
5597.606, 1636.242
5599.535, 1649.870
5601.463, 1649.621
5603.392, 1653.255
5605.320, 1647.203
5607.249, 1632.481
5609.177, 1633.447
5611.106, 1647.979
5613.034, 1663.212
5614.963, 1667.856
5616.891, 1640.316
5618.820, 1657.661
5620.748, 1673.505
5622.677, 1658.836
5624.605, 1655.182
5626.534, 1654.628
5628.462, 1660.138
5630.391, 1670.899
5632.319, 1635.336
5634.248, 1664.550
5636.176, 1692.610
5638.104, 1657.423
5640.033, 1645.680
5641.961, 1648.164
5643.890, 1659.724
5645.818, 1673.832
5647.747, 1656.546
5649.675, 1655.145
5651.604, 1667.520
5653.532, 1681.962
5655.460, 1685.881
5657.389, 1688.209
5659.317, 1679.960
5661.246, 1654.249
5663.174, 1708.134
5665.103, 1706.098
5667.031, 1672.556
5668.960, 1659.692
5670.888, 1713.188
5672.817, 1699.217
5674.745, 1675.774
5676.674, 1714.033
5678.602, 1711.343
5680.531, 1689.485
5682.459, 1670.755
5684.388, 1671.120
5686.316, 1707.329
5688.245, 1705.774
5690.173, 1691.853
5692.102, 1696.600
5694.030, 1726.198
5695.958, 1697.887
5697.887, 1671.393
5699.815, 1691.666
5701.744, 1677.319
5703.672, 1695.631
5705.601, 1700.493
5707.529, 1670.232
5709.458, 1691.419
5711.386, 1680.785
5713.314, 1672.246
5715.243, 1685.661
5717.171, 1693.608
5719.100, 1698.695
5721.028, 1679.410
5722.957, 1646.871
5724.885, 1659.466
5726.814, 1664.252
5728.742, 1690.835
5730.671, 1720.917
5732.599, 1674.656
5734.528, 1677.174
5736.456, 1677.302
5738.385, 1668.235
5740.313, 1676.817
5742.242, 1685.777
5744.170, 1678.648
5746.099, 1667.218
5748.027, 1672.032
5749.956, 1687.512
5751.884, 1667.409
5753.813, 1659.215
5755.741, 1702.698
5757.669, 1667.730
5759.598, 1679.922
5761.526, 1678.716
5763.455, 1631.416
5765.383, 1651.587
5767.312, 1654.110
5769.240, 1665.431
5771.168, 1689.870
5773.097, 1683.793
5775.025, 1681.809
5776.954, 1665.073
5778.882, 1650.444
5780.811, 1688.340
5782.739, 1698.714
5784.668, 1676.549
5786.596, 1652.316
5788.525, 1660.892
5790.453, 1665.064
5792.382, 1655.945
5794.310, 1662.371
5796.239, 1693.230
5798.167, 1663.502
5800.096, 1646.000
5802.024, 1664.907
5803.953, 1697.156
5805.881, 1671.239
5807.810, 1691.181
5809.738, 1680.625
5811.667, 1656.186
5813.595, 1678.290
5815.523, 1672.532
5817.452, 1668.058
5819.380, 1654.216
5821.309, 1624.375
5823.237, 1634.641
5825.166, 1667.385
5827.094, 1655.288
5829.022, 1604.123
5830.951, 1649.785
5832.879, 1645.419
5834.808, 1648.108
5836.736, 1658.931
5838.665, 1641.638
5840.593, 1650.104
5842.522, 1621.053
5844.450, 1615.433
5846.379, 1668.959
5848.307, 1637.483
5850.236, 1667.839
5852.164, 1684.778
5854.093, 1668.337
5856.021, 1665.562
5857.950, 1662.765
5859.878, 1669.274
5861.807, 1676.639
5863.735, 1672.193
5865.664, 1644.844
5867.592, 1629.582
5869.521, 1644.200
5871.449, 1673.517
5873.377, 1666.272
5875.306, 1645.119
5877.234, 1648.670
5879.163, 1665.068
5881.091, 1669.390
5883.020, 1690.580
5884.948, 1667.632
5886.876, 1662.656
5888.805, 1688.616
5890.733, 1636.804
5892.662, 1644.084
5894.590, 1652.781
5896.519, 1655.639
5898.447, 1670.248
5900.376, 1647.501
5902.304, 1651.303
5904.233, 1652.232
5906.161, 1640.658
5908.090, 1660.599
5910.018, 1664.377
5911.947, 1635.019
5913.875, 1622.146
5915.804, 1673.035
5917.732, 1662.003
5919.661, 1652.625
5921.589, 1650.288
5923.518, 1657.198
5925.446, 1683.400
5927.375, 1664.035
5929.303, 1662.400
5931.231, 1670.212
5933.160, 1667.953
5935.088, 1665.490
5937.017, 1665.724
5938.945, 1660.989
5940.874, 1657.798
5942.802, 1669.661
5944.730, 1720.811
5946.659, 1676.216
5948.587, 1640.873
5950.516, 1663.892
5952.444, 1669.762
5954.373, 1689.191
5956.301, 1689.696
5958.230, 1675.549
5960.158, 1663.178
5962.087, 1675.482
5964.015, 1671.104
5965.944, 1673.938
5967.872, 1674.350
5969.801, 1649.183
5971.729, 1622.022
5973.658, 1645.267
5975.586, 1672.037
5977.515, 1680.685
5979.443, 1691.130
5981.372, 1678.513
5983.300, 1659.789
5985.229, 1658.805
5987.157, 1677.001
5989.085, 1671.517
5991.014, 1650.963
5992.942, 1646.864
5994.871, 1668.716
5996.799, 1703.728
5998.728, 1668.100
6000.656, 1660.817
6002.584, 1656.652
6004.513, 1657.833
6006.441, 1681.668
6008.370, 1700.809
6010.299, 1676.820
6012.227, 1673.451
6014.156, 1687.851
6016.084, 1664.426
6018.013, 1658.252
6019.941, 1648.325
6021.870, 1643.516
6023.798, 1650.578
6025.727, 1671.262
6027.655, 1690.936
6029.583, 1677.688
6031.512, 1680.105
6033.440, 1708.697
6035.369, 1714.968
6037.297, 1684.905
6039.226, 1682.041
6041.154, 1686.542
6043.083, 1673.505
6045.011, 1632.354
6046.939, 1663.509
6048.868, 1693.511
6050.796, 1701.272
6052.725, 1697.288
6054.653, 1709.823
6056.582, 1729.585
6058.510, 1739.872
6060.439, 1733.522
6062.367, 1718.055
6064.296, 1718.312
6066.224, 1714.724
6068.153, 1703.685
6070.081, 1698.419
6072.010, 1698.115
6073.938, 1673.461
6075.867, 1716.724
6077.795, 1709.943
6079.724, 1685.407
6081.652, 1679.458
6083.581, 1678.072
6085.509, 1685.507
6087.438, 1688.956
6089.366, 1704.158
6091.294, 1718.745
6093.223, 1684.753
6095.151, 1696.100
6097.080, 1723.823
6099.008, 1719.786
6100.937, 1686.676
6102.865, 1667.321
6104.793, 1695.863
6106.722, 1692.170
6108.650, 1698.443
6110.579, 1724.627
6112.507, 1745.113
6114.436, 1727.719
6116.364, 1732.956
6118.293, 1741.821
6120.221, 1732.281
6122.150, 1701.262
6124.078, 1713.522
6126.007, 1696.511
6127.935, 1692.237
6129.864, 1710.405
6131.792, 1728.014
6133.721, 1677.854
6135.649, 1667.203
6137.578, 1691.802
6139.506, 1714.713
6141.435, 1722.399
6143.363, 1734.414
6145.292, 1740.979
6147.220, 1709.403
6149.148, 1681.364
6151.077, 1676.604
6153.005, 1688.262
6154.934, 1714.623
6156.862, 1725.661
6158.791, 1725.509
6160.719, 1740.617
6162.647, 1772.707
6164.576, 1727.864
6166.504, 1686.958
6168.433, 1694.956
6170.361, 1722.846
6172.290, 1737.750
6174.218, 1725.489
6176.147, 1721.631
6178.075, 1722.648
6180.004, 1707.798
6181.932, 1690.977
6183.861, 1696.812
6185.789, 1715.652
6187.718, 1717.047
6189.646, 1697.346
6191.575, 1699.000
6193.503, 1732.908
6195.432, 1750.013
6197.360, 1713.754
6199.289, 1721.239
6201.217, 1739.343
6203.146, 1746.996
6205.074, 1747.470
6207.002, 1725.428
6208.931, 1726.898
6210.859, 1723.956
6212.788, 1717.939
6214.716, 1722.447
6216.645, 1745.568
6218.573, 1758.997
6220.501, 1737.747
6222.430, 1720.482
6224.358, 1723.171
6226.287, 1733.072
6228.215, 1717.426
6230.144, 1757.007
6232.072, 1765.420
6234.001, 1746.007
6235.929, 1721.268
6237.858, 1707.086
6239.786, 1745.451
6241.715, 1734.848
6243.643, 1729.416
6245.572, 1730.906
6247.500, 1728.743
6249.429, 1734.528
6251.357, 1764.498
6253.286, 1743.258
6255.214, 1730.811
6257.143, 1731.753
6259.071, 1722.352
6261.000, 1704.906
6262.928, 1723.271
6264.856, 1750.006
6266.785, 1736.865
6268.713, 1722.630
6270.642, 1762.023
6272.570, 1771.329
6274.499, 1766.814
6276.427, 1745.741
6278.355, 1756.368
6280.284, 1770.798
6282.212, 1728.402
6284.141, 1733.740
6286.069, 1736.095
6287.998, 1756.165
6289.926, 1773.771
6291.855, 1770.706
6293.783, 1750.676
6295.712, 1738.360
6297.640, 1724.186
6299.569, 1741.914
6301.497, 1760.133
6303.426, 1764.065
6305.354, 1766.701
6307.283, 1733.423
6309.211, 1745.033
6311.140, 1747.081
6313.068, 1731.180
6314.997, 1713.129
6316.925, 1710.713
6318.854, 1748.845
6320.782, 1760.442
6322.710, 1757.995
6324.639, 1735.449
6326.567, 1721.504
6328.496, 1758.353
6330.424, 1789.948
6332.353, 1768.830
6334.281, 1731.310
6336.209, 1746.714
6338.138, 1776.752
6340.066, 1748.587
6341.995, 1727.967
6343.923, 1758.843
6345.852, 1793.037
6347.780, 1791.135
6349.709, 1782.531
6351.637, 1784.561
6353.566, 1726.183
6355.494, 1747.939
6357.423, 1752.782
6359.351, 1754.694
6361.280, 1750.924
6363.208, 1736.871
6365.137, 1731.190
6367.065, 1750.688
6368.994, 1800.099
6370.922, 1786.251
6372.851, 1753.234
6374.779, 1751.409
6376.708, 1775.669
6378.636, 1754.230
6380.564, 1759.919
6382.493, 1746.538
6384.421, 1728.247
6386.350, 1733.247
6388.278, 1761.515
6390.207, 1769.696
6392.135, 1733.361
6394.063, 1762.927
6395.992, 1766.605
6397.920, 1772.647
6399.849, 1790.974
6401.777, 1774.563
6403.706, 1766.161
6405.634, 1738.987
6407.563, 1760.337
6409.491, 1787.006
6411.420, 1773.858
6413.348, 1746.789
6415.277, 1799.830
6417.205, 1801.347
6419.134, 1782.043
6421.062, 1740.514
6422.991, 1752.378
6424.919, 1789.824
6426.848, 1769.369
6428.776, 1760.632
6430.705, 1720.687
6432.633, 1762.777
6434.562, 1776.157
6436.490, 1771.437
6438.418, 1793.241
6440.347, 1823.916
6442.275, 1784.592
6444.204, 1800.006
6446.132, 1778.389
6448.061, 1738.986
6449.989, 1735.223
6451.917, 1773.167
6453.846, 1798.760
6455.774, 1783.718
6457.703, 1760.741
6459.631, 1760.371
6461.560, 1743.053
6463.488, 1726.600
6465.417, 1739.152
6467.345, 1762.032
6469.274, 1757.009
6471.202, 1756.716
6473.131, 1779.026
6475.059, 1761.770
6476.988, 1731.913
6478.916, 1742.661
6480.845, 1776.841
6482.773, 1762.709
6484.702, 1786.413
6486.630, 1771.376
6488.559, 1741.819
6490.487, 1738.552
6492.416, 1763.270
6494.344, 1781.841
6496.272, 1768.144
6498.201, 1708.190
6500.129, 1741.315
6502.058, 1769.265
6503.986, 1743.504
6505.915, 1719.152
6507.843, 1753.096
6509.771, 1741.622
6511.700, 1769.051
6513.628, 1733.357
6515.557, 1737.688
6517.485, 1734.480
6519.414, 1732.460
6521.342, 1771.853
6523.271, 1733.412
6525.199, 1739.905
6527.128, 1727.615
6529.056, 1711.312
6530.985, 1742.566
6532.913, 1751.954
6534.842, 1722.752
6536.770, 1766.337
6538.699, 1746.271
6540.627, 1733.233
6542.556, 1751.964
6544.484, 1753.105
6546.413, 1742.919
6548.341, 1741.024
6550.270, 1740.845
6552.198, 1719.081
6554.126, 1754.757
6556.055, 1729.255
6557.983, 1726.770
6559.912, 1730.834
6561.840, 1735.623
6563.769, 1748.506
6565.697, 1759.591
6567.625, 1742.987
6569.554, 1765.531
6571.482, 1738.010
6573.411, 1766.902
6575.339, 1768.246
6577.268, 1739.602
6579.196, 1736.054
6581.125, 1754.805
6583.053, 1764.849
6584.982, 1752.522
6586.910, 1773.047
6588.839, 1759.419
6590.767, 1740.681
6592.696, 1738.281
6594.624, 1752.284
6596.553, 1778.606
6598.481, 1739.594
